  E[a.u.]     partial cross sections for l = 0, 1, 2, 3, ...
  2.000000E-03  1.316285E-09  1.225226E-07  7.090956E-15
  4.000000E-03  1.303514E-09  1.235780E-07  7.204044E-15
  6.000000E-03  1.290823E-09  1.246369E-07  7.317040E-15
  8.000000E-03  1.278213E-09  1.256994E-07  7.429938E-15
  1.000000E-02  1.265683E-09  1.267654E-07  7.542734E-15
  1.200000E-02  1.253233E-09  1.278349E-07  7.655420E-15
  1.400000E-02  1.240863E-09  1.289079E-07  7.767993E-15
  1.600000E-02  1.228572E-09  1.299843E-07  7.880446E-15
  1.800000E-02  1.216361E-09  1.310641E-07  7.992773E-15
  2.000000E-02  1.204228E-09  1.321473E-07  8.104970E-15
  2.200000E-02  1.192175E-09  1.332339E-07  8.217032E-15
  2.400000E-02  1.180200E-09  1.343239E-07  8.328952E-15
  2.600000E-02  1.168303E-09  1.354172E-07  8.440726E-15
  2.800000E-02  1.156485E-09  1.365138E-07  8.552347E-15
  3.000000E-02  1.144744E-09  1.376138E-07  8.663812E-15
  3.200000E-02  1.133081E-09  1.387170E-07  8.775115E-15
  3.400000E-02  1.121496E-09  1.398234E-07  8.886250E-15
  3.600000E-02  1.109988E-09  1.409331E-07  8.997212E-15
  3.800000E-02  1.098557E-09  1.420460E-07  9.107997E-15
  4.000000E-02  1.087203E-09  1.431621E-07  9.218599E-15
  4.200000E-02  1.075925E-09  1.442813E-07  9.329014E-15
  4.400000E-02  1.064724E-09  1.454037E-07  9.439235E-15
  4.600000E-02  1.053599E-09  1.465292E-07  9.549259E-15
  4.800000E-02  1.042550E-09  1.476578E-07  9.659080E-15
  5.000000E-02  1.031576E-09  1.487895E-07  9.768694E-15
  5.200000E-02  1.020678E-09  1.499242E-07  9.878095E-15
  5.400000E-02  1.009855E-09  1.510620E-07  9.987279E-15
  5.600000E-02  9.991075E-10  1.522028E-07  1.009624E-14
  5.800000E-02  9.884345E-10  1.533465E-07  1.020498E-14
  6.000000E-02  9.778360E-10  1.544932E-07  1.031348E-14
  6.200000E-02  9.673118E-10  1.556429E-07  1.042175E-14
  6.400000E-02  9.568617E-10  1.567955E-07  1.052977E-14
  6.600000E-02  9.464854E-10  1.579509E-07  1.063755E-14
  6.800000E-02  9.361828E-10  1.591093E-07  1.074508E-14
  7.000000E-02  9.259536E-10  1.602704E-07  1.085236E-14
  7.200000E-02  9.157976E-10  1.614344E-07  1.095937E-14
  7.400000E-02  9.057146E-10  1.626012E-07  1.106612E-14
  7.600000E-02  8.957042E-10  1.637708E-07  1.117261E-14
  7.800000E-02  8.857664E-10  1.649432E-07  1.127882E-14
  8.000000E-02  8.759008E-10  1.661182E-07  1.138475E-14
  8.200000E-02  8.661072E-10  1.672960E-07  1.149040E-14
  8.400000E-02  8.563854E-10  1.684765E-07  1.159577E-14
  8.600000E-02  8.467352E-10  1.696596E-07  1.170084E-14
  8.800000E-02  8.371564E-10  1.708454E-07  1.180562E-14
  9.000000E-02  8.276486E-10  1.720337E-07  1.191011E-14
  9.200000E-02  8.182117E-10  1.732247E-07  1.201429E-14
  9.400000E-02  8.088454E-10  1.744182E-07  1.211816E-14
  9.600000E-02  7.995495E-10  1.756143E-07  1.222172E-14
  9.800000E-02  7.903238E-10  1.768129E-07  1.232496E-14
  1.000000E-01  7.811680E-10  1.780140E-07  1.242789E-14
  1.020000E-01  7.720819E-10  1.792176E-07  1.253049E-14
  1.040000E-01  7.630653E-10  1.804236E-07  1.263276E-14
  1.060000E-01  7.541179E-10  1.816320E-07  1.273471E-14
  1.080000E-01  7.452394E-10  1.828428E-07  1.283631E-14
  1.100000E-01  7.364297E-10  1.840561E-07  1.293758E-14
  1.120000E-01  7.276886E-10  1.852716E-07  1.303850E-14
  1.140000E-01  7.190156E-10  1.864895E-07  1.313908E-14
  1.160000E-01  7.104107E-10  1.877097E-07  1.323930E-14
  1.180000E-01  7.018736E-10  1.889322E-07  1.333917E-14
  1.200000E-01  6.934040E-10  1.901570E-07  1.343868E-14
  1.220000E-01  6.850018E-10  1.913839E-07  1.353783E-14
  1.240000E-01  6.766665E-10  1.926131E-07  1.363662E-14
  1.260000E-01  6.683982E-10  1.938445E-07  1.373503E-14
  1.280000E-01  6.601963E-10  1.950780E-07  1.383307E-14
  1.300000E-01  6.520608E-10  1.963137E-07  1.393073E-14
  1.320000E-01  6.439914E-10  1.975515E-07  1.402801E-14
  1.340000E-01  6.359879E-10  1.987913E-07  1.412491E-14
  1.360000E-01  6.280499E-10  2.000333E-07  1.422142E-14
  1.380000E-01  6.201772E-10  2.012773E-07  1.431753E-14
  1.400000E-01  6.123697E-10  2.025232E-07  1.441326E-14
  1.420000E-01  6.046270E-10  2.037712E-07  1.450858E-14
  1.440000E-01  5.969490E-10  2.050212E-07  1.460350E-14
  1.460000E-01  5.893352E-10  2.062731E-07  1.469802E-14
  1.480000E-01  5.817856E-10  2.075269E-07  1.479213E-14
  1.500000E-01  5.742999E-10  2.087826E-07  1.488583E-14
  1.520000E-01  5.668777E-10  2.100402E-07  1.497911E-14
  1.540000E-01  5.595189E-10  2.112996E-07  1.507198E-14
  1.560000E-01  5.522232E-10  2.125608E-07  1.516442E-14
  1.580000E-01  5.449903E-10  2.138238E-07  1.525644E-14
  1.600000E-01  5.378201E-10  2.150887E-07  1.534803E-14
  1.620000E-01  5.307122E-10  2.163552E-07  1.543919E-14
  1.640000E-01  5.236663E-10  2.176235E-07  1.552992E-14
  1.660000E-01  5.166823E-10  2.188935E-07  1.562021E-14
  1.680000E-01  5.097599E-10  2.201651E-07  1.571006E-14
  1.700000E-01  5.028988E-10  2.214384E-07  1.579946E-14
  1.720000E-01  4.960987E-10  2.227133E-07  1.588843E-14
  1.740000E-01  4.893595E-10  2.239899E-07  1.597694E-14
  1.760000E-01  4.826808E-10  2.252680E-07  1.606500E-14
  1.780000E-01  4.760624E-10  2.265476E-07  1.615260E-14
  1.800000E-01  4.695041E-10  2.278288E-07  1.623975E-14
  1.820000E-01  4.630055E-10  2.291115E-07  1.632644E-14
  1.840000E-01  4.565664E-10  2.303956E-07  1.641266E-14
  1.860000E-01  4.501866E-10  2.316812E-07  1.649842E-14
  1.880000E-01  4.438657E-10  2.329683E-07  1.658371E-14
  1.900000E-01  4.376036E-10  2.342567E-07  1.666853E-14
  1.920000E-01  4.314000E-10  2.355465E-07  1.675287E-14
  1.940000E-01  4.252545E-10  2.368377E-07  1.683674E-14
  1.960000E-01  4.191670E-10  2.381302E-07  1.692013E-14
  1.980000E-01  4.131372E-10  2.394240E-07  1.700303E-14
  2.000000E-01  4.071648E-10  2.407191E-07  1.708546E-14
  2.020000E-01  4.012495E-10  2.420154E-07  1.716739E-14
  2.040000E-01  3.953912E-10  2.433130E-07  1.724884E-14
  2.060000E-01  3.895894E-10  2.446118E-07  1.732979E-14
  2.080000E-01  3.838440E-10  2.459117E-07  1.741025E-14
  2.100000E-01  3.781547E-10  2.472128E-07  1.749021E-14
  2.120000E-01  3.725212E-10  2.485151E-07  1.756967E-14
  2.140000E-01  3.669432E-10  2.498184E-07  1.764864E-14
  2.160000E-01  3.614206E-10  2.511228E-07  1.772709E-14
  2.180000E-01  3.559529E-10  2.524283E-07  1.780504E-14
  2.200000E-01  3.505401E-10  2.537348E-07  1.788249E-14
  2.220000E-01  3.451816E-10  2.550423E-07  1.795942E-14
  2.240000E-01  3.398774E-10  2.563509E-07  1.803584E-14
  2.260000E-01  3.346272E-10  2.576603E-07  1.811174E-14
  2.280000E-01  3.294306E-10  2.589707E-07  1.818713E-14
  2.300000E-01  3.242874E-10  2.602820E-07  1.826200E-14
  2.320000E-01  3.191973E-10  2.615942E-07  1.833634E-14
  2.340000E-01  3.141601E-10  2.629072E-07  1.841017E-14
  2.360000E-01  3.091755E-10  2.642211E-07  1.848346E-14
  2.380000E-01  3.042432E-10  2.655358E-07  1.855623E-14
  2.400000E-01  2.993629E-10  2.668513E-07  1.862847E-14
  2.420000E-01  2.945344E-10  2.681675E-07  1.870018E-14
  2.440000E-01  2.897574E-10  2.694844E-07  1.877136E-14
  2.460000E-01  2.850317E-10  2.708021E-07  1.884200E-14
  2.480000E-01  2.803568E-10  2.721205E-07  1.891210E-14
  2.500000E-01  2.757327E-10  2.734395E-07  1.898166E-14
  2.520000E-01  2.711590E-10  2.747591E-07  1.905068E-14
  2.540000E-01  2.666354E-10  2.760794E-07  1.911916E-14
  2.560000E-01  2.621616E-10  2.774002E-07  1.918710E-14
  2.580000E-01  2.577374E-10  2.787216E-07  1.925449E-14
  2.600000E-01  2.533626E-10  2.800436E-07  1.932133E-14
  2.620000E-01  2.490367E-10  2.813660E-07  1.938762E-14
  2.640000E-01  2.447596E-10  2.826889E-07  1.945336E-14
  2.660000E-01  2.405310E-10  2.840123E-07  1.951855E-14
  2.680000E-01  2.363507E-10  2.853362E-07  1.958318E-14
  2.700000E-01  2.322182E-10  2.866604E-07  1.964725E-14
  2.720000E-01  2.281334E-10  2.879851E-07  1.971077E-14
  2.740000E-01  2.240959E-10  2.893101E-07  1.977373E-14
  2.760000E-01  2.201056E-10  2.906354E-07  1.983613E-14
  2.780000E-01  2.161621E-10  2.919610E-07  1.989797E-14
  2.800000E-01  2.122651E-10  2.932870E-07  1.995924E-14
  2.820000E-01  2.084144E-10  2.946132E-07  2.001995E-14
  2.840000E-01  2.046097E-10  2.959396E-07  2.008009E-14
  2.860000E-01  2.008507E-10  2.972663E-07  2.013967E-14
  2.880000E-01  1.971372E-10  2.985931E-07  2.019867E-14
  2.900000E-01  1.934688E-10  2.999201E-07  2.025711E-14
  2.920000E-01  1.898453E-10  3.012473E-07  2.031497E-14
  2.940000E-01  1.862664E-10  3.025745E-07  2.037226E-14
  2.960000E-01  1.827319E-10  3.039019E-07  2.042898E-14
  2.980000E-01  1.792414E-10  3.052293E-07  2.048512E-14
  3.000000E-01  1.757947E-10  3.065568E-07  2.054069E-14
  3.020000E-01  1.723914E-10  3.078842E-07  2.059568E-14
  3.040000E-01  1.690314E-10  3.092117E-07  2.065008E-14
  3.060000E-01  1.657144E-10  3.105391E-07  2.070391E-14
  3.080000E-01  1.624400E-10  3.118665E-07  2.075716E-14
  3.100000E-01  1.592080E-10  3.131938E-07  2.080983E-14
  3.120000E-01  1.560182E-10  3.145210E-07  2.086191E-14
  3.140000E-01  1.528701E-10  3.158481E-07  2.091341E-14
  3.160000E-01  1.497637E-10  3.171750E-07  2.096433E-14
  3.180000E-01  1.466985E-10  3.185018E-07  2.101466E-14
  3.200000E-01  1.436743E-10  3.198283E-07  2.106440E-14
  3.220000E-01  1.406908E-10  3.211546E-07  2.111355E-14
  3.240000E-01  1.377478E-10  3.224807E-07  2.116212E-14
  3.260000E-01  1.348450E-10  3.238064E-07  2.121010E-14
  3.280000E-01  1.319821E-10  3.251319E-07  2.125748E-14
  3.300000E-01  1.291588E-10  3.264571E-07  2.130428E-14
  3.320000E-01  1.263749E-10  3.277819E-07  2.135048E-14
  3.340000E-01  1.236301E-10  3.291063E-07  2.139609E-14
  3.360000E-01  1.209240E-10  3.304304E-07  2.144111E-14
  3.380000E-01  1.182565E-10  3.317540E-07  2.148554E-14
  3.400000E-01  1.156272E-10  3.330772E-07  2.152937E-14
  3.420000E-01  1.130359E-10  3.343999E-07  2.157261E-14
  3.440000E-01  1.104823E-10  3.357221E-07  2.161525E-14
  3.460000E-01  1.079661E-10  3.370437E-07  2.165729E-14
  3.480000E-01  1.054870E-10  3.383649E-07  2.169874E-14
  3.500000E-01  1.030449E-10  3.396855E-07  2.173959E-14
  3.520000E-01  1.006393E-10  3.410055E-07  2.177984E-14
  3.540000E-01  9.827012E-11  3.423248E-07  2.181949E-14
  3.560000E-01  9.593695E-11  3.436436E-07  2.185855E-14
  3.580000E-01  9.363957E-11  3.449617E-07  2.189700E-14
  3.600000E-01  9.137771E-11  3.462790E-07  2.193486E-14
  3.620000E-01  8.915108E-11  3.475957E-07  2.197212E-14
  3.640000E-01  8.695942E-11  3.489117E-07  2.200877E-14
  3.660000E-01  8.480246E-11  3.502269E-07  2.204483E-14
  3.680000E-01  8.267993E-11  3.515413E-07  2.208028E-14
  3.700000E-01  8.059155E-11  3.528549E-07  2.211514E-14
  3.720000E-01  7.853705E-11  3.541676E-07  2.214939E-14
  3.740000E-01  7.651618E-11  3.554796E-07  2.218304E-14
  3.760000E-01  7.452864E-11  3.567906E-07  2.221609E-14
  3.780000E-01  7.257419E-11  3.581007E-07  2.224853E-14
  3.800000E-01  7.065254E-11  3.594100E-07  2.228038E-14
  3.820000E-01  6.876344E-11  3.607182E-07  2.231162E-14
  3.840000E-01  6.690660E-11  3.620255E-07  2.234226E-14
  3.860000E-01  6.508177E-11  3.633318E-07  2.237229E-14
  3.880000E-01  6.328868E-11  3.646371E-07  2.240173E-14
  3.900000E-01  6.152707E-11  3.659414E-07  2.243056E-14
  3.920000E-01  5.979666E-11  3.672446E-07  2.245879E-14
  3.940000E-01  5.809718E-11  3.685467E-07  2.248641E-14
  3.960000E-01  5.642839E-11  3.698476E-07  2.251344E-14
  3.980000E-01  5.479001E-11  3.711475E-07  2.253986E-14
  4.000000E-01  5.318177E-11  3.724462E-07  2.256568E-14
  4.020000E-01  5.160342E-11  3.737437E-07  2.259089E-14
  4.040000E-01  5.005469E-11  3.750400E-07  2.261551E-14
  4.060000E-01  4.853533E-11  3.763351E-07  2.263952E-14
  4.080000E-01  4.704506E-11  3.776289E-07  2.266293E-14
  4.100000E-01  4.558363E-11  3.789215E-07  2.268573E-14
  4.120000E-01  4.415077E-11  3.802127E-07  2.270794E-14
  4.140000E-01  4.274623E-11  3.815027E-07  2.272954E-14
  4.160000E-01  4.136976E-11  3.827913E-07  2.275055E-14
  4.180000E-01  4.002108E-11  3.840785E-07  2.277095E-14
  4.200000E-01  3.869994E-11  3.853643E-07  2.279075E-14
  4.220000E-01  3.740608E-11  3.866488E-07  2.280996E-14
  4.240000E-01  3.613926E-11  3.879317E-07  2.282856E-14
  4.260000E-01  3.489920E-11  3.892133E-07  2.284656E-14
  4.280000E-01  3.368566E-11  3.904933E-07  2.286397E-14
  4.300000E-01  3.249839E-11  3.917719E-07  2.288077E-14
  4.320000E-01  3.133712E-11  3.930489E-07  2.289698E-14
  4.340000E-01  3.020160E-11  3.943244E-07  2.291259E-14
  4.360000E-01  2.909159E-11  3.955983E-07  2.292760E-14
  4.380000E-01  2.800682E-11  3.968707E-07  2.294202E-14
  4.400000E-01  2.694706E-11  3.981414E-07  2.295584E-14
  4.420000E-01  2.591204E-11  3.994104E-07  2.296906E-14
  4.440000E-01  2.490153E-11  4.006778E-07  2.298169E-14
  4.460000E-01  2.391526E-11  4.019436E-07  2.299373E-14
  4.480000E-01  2.295299E-11  4.032076E-07  2.300517E-14
  4.500000E-01  2.201448E-11  4.044699E-07  2.301602E-14
  4.520000E-01  2.109947E-11  4.057304E-07  2.302628E-14
  4.540000E-01  2.020773E-11  4.069892E-07  2.303594E-14
  4.560000E-01  1.933900E-11  4.082462E-07  2.304502E-14
  4.580000E-01  1.849304E-11  4.095014E-07  2.305350E-14
  4.600000E-01  1.766962E-11  4.107547E-07  2.306140E-14
  4.620000E-01  1.686847E-11  4.120062E-07  2.306870E-14
  4.640000E-01  1.608938E-11  4.132558E-07  2.307542E-14
  4.660000E-01  1.533208E-11  4.145034E-07  2.308155E-14
  4.680000E-01  1.459635E-11  4.157492E-07  2.308710E-14
  4.700000E-01  1.388194E-11  4.169930E-07  2.309206E-14
  4.720000E-01  1.318862E-11  4.182349E-07  2.309643E-14
  4.740000E-01  1.251615E-11  4.194748E-07  2.310023E-14
  4.760000E-01  1.186428E-11  4.207126E-07  2.310344E-14
  4.780000E-01  1.123279E-11  4.219484E-07  2.310606E-14
  4.800000E-01  1.062144E-11  4.231822E-07  2.310811E-14
  4.820000E-01  1.003000E-11  4.244139E-07  2.310958E-14
  4.840000E-01  9.458227E-12  4.256435E-07  2.311047E-14
  4.860000E-01  8.905896E-12  4.268710E-07  2.311078E-14
  4.880000E-01  8.372774E-12  4.280963E-07  2.311052E-14
  4.900000E-01  7.858631E-12  4.293195E-07  2.310968E-14
  4.920000E-01  7.363237E-12  4.305405E-07  2.310826E-14
  4.940000E-01  6.886363E-12  4.317593E-07  2.310627E-14
  4.960000E-01  6.427782E-12  4.329759E-07  2.310372E-14
  4.980000E-01  5.987267E-12  4.341902E-07  2.310058E-14
  5.000000E-01  5.564593E-12  4.354023E-07  2.309688E-14
  5.020000E-01  5.159534E-12  4.366120E-07  2.309262E-14
  5.040000E-01  4.771868E-12  4.378195E-07  2.308778E-14
  5.060000E-01  4.401371E-12  4.390247E-07  2.308238E-14
  5.080000E-01  4.047821E-12  4.402274E-07  2.307641E-14
  5.100000E-01  3.710997E-12  4.414279E-07  2.306988E-14
  5.120000E-01  3.390681E-12  4.426259E-07  2.306279E-14
  5.140000E-01  3.086652E-12  4.438215E-07  2.305514E-14
  5.160000E-01  2.798693E-12  4.450147E-07  2.304693E-14
  5.180000E-01  2.526588E-12  4.462055E-07  2.303816E-14
  5.200000E-01  2.270121E-12  4.473938E-07  2.302883E-14
  5.220000E-01  2.029076E-12  4.485796E-07  2.301895E-14
  5.240000E-01  1.803240E-12  4.497628E-07  2.300851E-14
  5.260000E-01  1.592401E-12  4.509436E-07  2.299752E-14
  5.280000E-01  1.396347E-12  4.521218E-07  2.298598E-14
  5.300000E-01  1.214868E-12  4.532974E-07  2.297389E-14
  5.320000E-01  1.047753E-12  4.544704E-07  2.296125E-14
  5.340000E-01  8.947946E-13  4.556409E-07  2.294807E-14
  5.360000E-01  7.557854E-13  4.568086E-07  2.293434E-14
  5.380000E-01  6.305190E-13  4.579738E-07  2.292007E-14
  5.400000E-01  5.187903E-13  4.591363E-07  2.290526E-14
  5.420000E-01  4.203952E-13  4.602960E-07  2.288990E-14
  5.440000E-01  3.351304E-13  4.614531E-07  2.287401E-14
  5.460000E-01  2.627944E-13  4.626074E-07  2.285758E-14
  5.480000E-01  2.031860E-13  4.637590E-07  2.284062E-14
  5.500000E-01  1.561057E-13  4.649079E-07  2.282312E-14
  5.520000E-01  1.213548E-13  4.660539E-07  2.280509E-14
  5.540000E-01  9.873584E-14  4.671971E-07  2.278653E-14
  5.560000E-01  8.805252E-14  4.683375E-07  2.276744E-14
  5.580000E-01  8.910940E-14  4.694751E-07  2.274782E-14
  5.600000E-01  1.017127E-13  4.706098E-07  2.272768E-14
  5.620000E-01  1.256690E-13  4.717416E-07  2.270702E-14
  5.640000E-01  1.607868E-13  4.728705E-07  2.268584E-14
  5.660000E-01  2.068753E-13  4.739965E-07  2.266413E-14
  5.680000E-01  2.637449E-13  4.751196E-07  2.264191E-14
  5.700000E-01  3.312072E-13  4.762397E-07  2.261917E-14
  5.720000E-01  4.090749E-13  4.773568E-07  2.259592E-14
  5.740000E-01  4.971621E-13  4.784709E-07  2.257215E-14
  5.760000E-01  5.952837E-13  4.795821E-07  2.254788E-14
  5.780000E-01  7.032560E-13  4.806901E-07  2.252310E-14
  5.800000E-01  8.208964E-13  4.817952E-07  2.249781E-14
  5.820000E-01  9.480234E-13  4.828971E-07  2.247201E-14
  5.840000E-01  1.084457E-12  4.839960E-07  2.244572E-14
  5.860000E-01  1.230018E-12  4.850918E-07  2.241892E-14
  5.880000E-01  1.384528E-12  4.861845E-07  2.239163E-14
  5.900000E-01  1.547811E-12  4.872740E-07  2.236384E-14
  5.920000E-01  1.719691E-12  4.883603E-07  2.233555E-14
  5.940000E-01  1.899994E-12  4.894435E-07  2.230678E-14
  5.960000E-01  2.088547E-12  4.905235E-07  2.227751E-14
  5.980000E-01  2.285178E-12  4.916003E-07  2.224775E-14
  6.000000E-01  2.489716E-12  4.926738E-07  2.221751E-14
  6.020000E-01  2.701991E-12  4.937442E-07  2.218679E-14
  6.040000E-01  2.921836E-12  4.948112E-07  2.215558E-14
  6.060000E-01  3.149083E-12  4.958750E-07  2.212389E-14
  6.080000E-01  3.383567E-12  4.969354E-07  2.209173E-14
  6.100000E-01  3.625122E-12  4.979926E-07  2.205909E-14
  6.120000E-01  3.873585E-12  4.990464E-07  2.202598E-14
  6.140000E-01  4.128793E-12  5.000969E-07  2.199240E-14
  6.160000E-01  4.390587E-12  5.011440E-07  2.195835E-14
  6.180000E-01  4.658806E-12  5.021877E-07  2.192383E-14
  6.200000E-01  4.933291E-12  5.032280E-07  2.188885E-14
  6.220000E-01  5.213885E-12  5.042649E-07  2.185340E-14
  6.240000E-01  5.500432E-12  5.052984E-07  2.181750E-14
  6.260000E-01  5.792777E-12  5.063284E-07  2.178114E-14
  6.280000E-01  6.090766E-12  5.073549E-07  2.174433E-14
  6.300000E-01  6.394247E-12  5.083780E-07  2.170706E-14
  6.320000E-01  6.703068E-12  5.093976E-07  2.166935E-14
  6.340000E-01  7.017081E-12  5.104136E-07  2.163119E-14
  6.360000E-01  7.336134E-12  5.114261E-07  2.159258E-14
  6.380000E-01  7.660083E-12  5.124351E-07  2.155353E-14
  6.400000E-01  7.988779E-12  5.134405E-07  2.151403E-14
  6.420000E-01  8.322077E-12  5.144423E-07  2.147410E-14
  6.440000E-01  8.659836E-12  5.154406E-07  2.143374E-14
  6.460000E-01  9.001910E-12  5.164352E-07  2.139294E-14
  6.480000E-01  9.348160E-12  5.174262E-07  2.135171E-14
  6.500000E-01  9.698444E-12  5.184135E-07  2.131006E-14
  6.520000E-01  1.005263E-11  5.193972E-07  2.126798E-14
  6.540000E-01  1.041056E-11  5.203772E-07  2.122547E-14
  6.560000E-01  1.077213E-11  5.213536E-07  2.118255E-14
  6.580000E-01  1.113718E-11  5.223262E-07  2.113920E-14
  6.600000E-01  1.150558E-11  5.232951E-07  2.109545E-14
  6.620000E-01  1.187720E-11  5.242603E-07  2.105128E-14
  6.640000E-01  1.225191E-11  5.252217E-07  2.100670E-14
  6.660000E-01  1.262958E-11  5.261794E-07  2.096171E-14
  6.680000E-01  1.301008E-11  5.271332E-07  2.091631E-14
  6.700000E-01  1.339328E-11  5.280833E-07  2.087052E-14
  6.720000E-01  1.377906E-11  5.290296E-07  2.082432E-14
  6.740000E-01  1.416729E-11  5.299720E-07  2.077773E-14
  6.760000E-01  1.455784E-11  5.309106E-07  2.073075E-14
  6.780000E-01  1.495060E-11  5.318454E-07  2.068337E-14
  6.800000E-01  1.534544E-11  5.327763E-07  2.063561E-14
  6.820000E-01  1.574224E-11  5.337033E-07  2.058745E-14
  6.840000E-01  1.614089E-11  5.346264E-07  2.053892E-14
  6.860000E-01  1.654126E-11  5.355456E-07  2.049000E-14
  6.880000E-01  1.694324E-11  5.364609E-07  2.044071E-14
  6.900000E-01  1.734671E-11  5.373722E-07  2.039104E-14
  6.920000E-01  1.775156E-11  5.382796E-07  2.034100E-14
  6.940000E-01  1.815768E-11  5.391831E-07  2.029059E-14
  6.960000E-01  1.856495E-11  5.400825E-07  2.023981E-14
  6.980000E-01  1.897326E-11  5.409780E-07  2.018867E-14
